wavelength,reflectivity
1300.0,104.96
1302.0,105.32
1304.0,105.39
1306.0,105.2
1308.0,105.15
1310.0,105.26
1312.0,105.11
1314.0,105.15
1316.0,105.065
1318.0,104.67
1320.0,104.22
1322.0,104.12
1324.0,103.91
1326.0,103.93
1328.0,103.68
1330.0,103.44
1332.0,103.04
1334.0,102.56
1336.0,101.86
1338.0,101.23
1340.0,100.66
1342.0,100.26
1344.0,99.62
1346.0,98.82
1348.0,98.02
1350.0,97.18
1352.0,96.52
1354.0,95.83
1356.0,94.96
1358.0,94.03
1360.0,93.04
1362.0,92.17
1364.0,91.44
1366.0,90.85
1368.0,90.4
1370.0,90.04
1372.0,89.81
1374.0,89.62
1376.0,89.45
1378.0,89.28
1380.0,89.03
1382.0,88.8
1384.0,88.55
1386.0,88.29
1388.0,88.14
1390.0,87.87
1392.0,87.53
1394.0,87.11
1396.0,86.48
1398.0,85.72
1400.0,84.9
1402.0,83.97
1404.0,83.04
1406.0,82.03
1408.0,80.905
1410.0,79.64
1412.0,78.31
1414.0,76.94
1416.0,75.625
1418.0,74.39
1420.0,73.21
1422.0,72.105
1424.0,71.05
1426.0,70.04
1428.0,69.11
1430.0,68.225
1432.0,67.46
1434.0,66.85
1436.0,66.24
1438.0,65.73
1440.0,65.17
1442.0,64.57
1444.0,64.07
1446.0,63.52
1448.0,63.08
1450.0,62.68
1452.0,62.27
1454.0,61.77
1456.0,61.26
1458.0,60.67
1460.0,60.1
1462.0,59.51
1464.0,58.86
1466.0,58.22
1468.0,57.48
1470.0,56.74
1472.0,56.03
1474.0,55.35
1476.0,54.755
1478.0,54.13
1480.0,53.6
1482.0,53.12
1484.0,52.72
1486.0,52.4
1488.0,52.19
1490.0,52.08
1492.0,52.02
1494.0,51.98
1496.0,51.98
1498.0,52.0
1500.0,52.08
1502.0,52.19
1504.0,52.31
1506.0,52.46
1508.0,52.72
1510.0,52.99
1512.0,53.24
1514.0,53.47
1516.0,53.64
1518.0,53.75
1520.0,53.88
1522.0,53.895
1524.0,53.895
1526.0,53.85
1528.0,53.67
1530.0,53.535
1532.0,53.41
1534.0,53.35
1536.0,53.29
1538.0,53.2
1540.0,53.14
1542.0,53.14
1544.0,53.16
1546.0,53.22
1548.0,53.31
1550.0,53.48
1552.0,53.73
1554.0,53.94
1556.0,54.09
1558.0,54.28
1560.0,54.47
1562.0,54.7
1564.0,54.93
1566.0,55.04
1568.0,55.18
1570.0,55.21
1572.0,55.35
1574.0,55.5
1576.0,55.61
1578.0,55.65
1580.0,55.69
1582.0,55.69
1584.0,55.75
1586.0,55.82
1588.0,55.94
1590.0,56.18
1592.0,56.51
1594.0,56.91
1596.0,57.46
1598.0,58.05
1600.0,58.67
1602.0,59.42
1604.0,60.08
1606.0,60.755
1608.0,61.45
1610.0,62.13
1612.0,62.84
1614.0,63.555
1616.0,64.24
1618.0,64.885
1620.0,65.54
1622.0,66.18
1624.0,66.81
1626.0,67.38
1628.0,67.95
1630.0,68.48
1632.0,69.03
1634.0,69.51
1636.0,69.96
1638.0,70.44
1640.0,70.91
1642.0,71.39
1644.0,71.85
1646.0,72.25
1648.0,72.68
1650.0,73.16
1652.0,73.65
1654.0,74.045
1656.0,74.39
1658.0,74.75
1660.0,75.15
1662.0,75.51
1664.0,75.8
1666.0,76.05
1668.0,76.29
1670.0,76.58
1672.0,76.75
1674.0,76.9
1676.0,77.02
1678.0,77.11
1680.0,77.13
1682.0,77.05
1684.0,76.94
1686.0,76.83
1688.0,76.69
1690.0,76.54
1692.0,76.235
1694.0,75.89
1696.0,75.44
1698.0,74.87
1700.0,74.28
1702.0,73.67
1704.0,73.25
1706.0,72.97
1708.0,72.8
1710.0,72.82
1712.0,72.89
1714.0,73.01
1716.0,73.06
1718.0,73.06
1720.0,73.04
1722.0,72.99
1724.0,72.91
1726.0,72.85
1728.0,72.74
1730.0,72.57
1732.0,72.34
1734.0,72.17
1736.0,72.0
1738.0,71.81
1740.0,71.6
1742.0,71.47
1744.0,71.37
1746.0,71.26
1748.0,70.99
1750.0,70.82
1752.0,70.72
1754.0,70.67
1756.0,70.57
1758.0,70.31
1760.0,69.95
1762.0,69.72
1764.0,69.53
1766.0,69.39
1768.0,69.24
1770.0,69.01
1772.0,68.82
1774.0,68.71
1776.0,68.63
1778.0,68.6
1780.0,68.56
1782.0,68.58
1784.0,68.56
1786.0,68.58
1788.0,68.65
1790.0,68.63
1792.0,68.6
1794.0,68.61
1796.0,68.71
1798.0,68.9
1800.0,69.03
1802.0,69.07
1804.0,68.99
1806.0,68.94
1808.0,68.79
1810.0,68.67
1812.0,68.56
1814.0,68.39
1816.0,68.27
1818.0,68.155
1820.0,68.08
1822.0,68.08
1824.0,68.08
1826.0,68.12
1828.0,68.25
1830.0,68.46
1832.0,68.61
1834.0,68.82
1836.0,69.03
1838.0,69.32
1840.0,69.62
1842.0,69.85
1844.0,70.06
1846.0,70.23
1848.0,70.46
1850.0,70.67
1852.0,70.86
1854.0,70.97
1856.0,70.93
1858.0,70.86
1860.0,70.67
1862.0,70.57
1864.0,70.55
1866.0,70.48
1868.0,70.33
1870.0,70.02
1872.0,69.57
1874.0,69.05
1876.0,68.42
1878.0,67.76
1880.0,67.11
1882.0,66.39
1884.0,65.55
1886.0,64.55
1888.0,63.48
1890.0,62.25
1892.0,60.9
1894.0,59.38
1896.0,57.76
1898.0,56.16
1900.0,54.53
1902.0,52.9
1904.0,51.26
1906.0,49.7
1908.0,48.13
1910.0,46.73
1912.0,45.57
1914.0,44.56
1916.0,43.57
1918.0,42.77
1920.0,41.98
1922.0,41.31
1924.0,40.7
1926.0,40.23
1928.0,39.9
1930.0,39.75
1932.0,39.68
1934.0,39.62
1936.0,39.56
1938.0,39.52
1940.0,39.66
1942.0,39.89
1944.0,40.25
1946.0,40.59
1948.0,40.97
1950.0,41.31
1952.0,41.65
1954.0,41.98
1956.0,42.38
1958.0,42.87
1960.0,43.38
1962.0,43.88
1964.0,44.28
1966.0,44.71
1968.0,45.07
1970.0,45.51
1972.0,45.97
1974.0,46.46
1976.0,46.98
1978.0,47.38
1980.0,47.75
1982.0,48.07
1984.0,48.46
1986.0,48.86
1988.0,49.38
1990.0,49.86
1992.0,50.1
1994.0,50.37
1996.0,50.61
1998.0,50.96
2000.0,51.28
2002.0,51.45
2004.0,51.58
2006.0,51.68
2008.0,51.77
2010.0,51.77
2012.0,51.66
2014.0,51.55
2016.0,51.58
2018.0,51.56
2020.0,51.43
2022.0,51.01
2024.0,50.5
2026.0,50.03
2028.0,49.58
2030.0,49.01
2032.0,48.32
2034.0,47.61
2036.0,46.82
2038.0,45.91
2040.0,44.85
2042.0,43.69
2044.0,42.6
2046.0,41.58
2048.0,40.55
2050.0,39.43
2052.0,38.31
2054.0,37.21
2056.0,36.16
2058.0,35.21
2060.0,34.3
2062.0,33.59
2064.0,32.81
2066.0,31.9
2068.0,30.95
2070.0,30.015
2072.0,29.22
2074.0,28.4
2076.0,27.63
2078.0,26.88
2080.0,26.24
2082.0,25.82
2084.0,25.38
2086.0,24.96
2088.0,24.49
2090.0,24.05
2092.0,23.75
2094.0,23.35
2096.0,22.95
2098.0,22.49
2100.0,22.28
2102.0,22.13
2104.0,21.96
2106.0,21.79
2108.0,21.83
2110.0,21.96
2112.0,22.19
2114.0,22.42
2116.0,22.59
2118.0,22.87
2120.0,23.12
2122.0,23.48
2124.0,23.92
2126.0,24.34
2128.0,24.62
2130.0,24.96
2132.0,25.44
2134.0,25.95
2136.0,26.39
2138.0,26.62
2140.0,26.96
2142.0,27.49
2144.0,27.95
2146.0,28.31
2148.0,28.61
2150.0,28.86
2152.0,29.3
2154.0,29.72
2156.0,30.1
2158.0,30.5
2160.0,30.72
2162.0,31.14
2164.0,31.58
2166.0,31.98
2168.0,32.34
2170.0,32.72
2172.0,33.06
2174.0,33.5
2176.0,33.92
2178.0,34.3
2180.0,34.595
2182.0,34.955
2184.0,35.38
2186.0,35.76
2188.0,36.05
2190.0,36.41
2192.0,36.83
2194.0,37.235
2196.0,37.59
2198.0,37.98
2200.0,38.31
2202.0,38.55
2204.0,38.8
2206.0,38.97
2208.0,39.24
2210.0,39.39
2212.0,39.52
2214.0,39.68
2216.0,39.81
2218.0,39.94
2220.0,40.0
2222.0,40.09
2224.0,40.145
2226.0,40.09
2228.0,40.11
2230.0,40.02
2232.0,40.09
2234.0,40.055
2236.0,39.92
2238.0,39.9
2240.0,39.68
2242.0,39.28
2244.0,38.78
2246.0,37.91
2248.0,37.09
2250.0,36.03
2252.0,34.91
2254.0,33.75
2256.0,32.45
2258.0,31.18
2260.0,29.72
2262.0,28.21
2264.0,26.83
2266.0,25.38
2268.0,24.13
2270.0,23.1
2272.0,22.51
2274.0,22.34
2276.0,22.49
2278.0,22.97
2280.0,23.56
2282.0,24.07
2284.0,24.57
2286.0,25.06
2288.0,25.44
2290.0,25.65
2292.0,25.69
2294.0,25.67
2296.0,25.5
2298.0,25.14
2300.0,24.72
2302.0,24.32
2304.0,23.94
2306.0,23.42
2308.0,22.87
2310.0,22.36
2312.0,21.83
2314.0,21.41
2316.0,20.92
2318.0,20.35
2320.0,19.81
2322.0,19.43
2324.0,19.03
2326.0,18.52
2328.0,17.97
2330.0,17.55
2332.0,17.13
2334.0,16.73
2336.0,16.41
2338.0,16.28
2340.0,16.2
2342.0,16.14
2344.0,16.11
2346.0,16.18
2348.0,16.35
2350.0,16.37
2352.0,16.24
2354.0,16.26
2356.0,16.52
2358.0,16.85
2360.0,17.1
2362.0,17.38
2364.0,17.55
2366.0,17.55
2368.0,17.55
2370.0,17.55
2372.0,17.7
2374.0,17.95
2376.0,18.1
2378.0,18.43
2380.0,18.79
2382.0,19.145
2384.0,19.21
2386.0,19.145
2388.0,19.13
2390.0,19.13
2392.0,19.34
2394.0,19.57
2396.0,19.62
2398.0,19.53
2400.0,19.62
2402.0,19.85
2404.0,20.14
2406.0,20.27
2408.0,20.17
2410.0,19.91
2412.0,19.66
2414.0,19.6
2416.0,19.51
2418.0,19.43
2420.0,19.32
2422.0,19.32
2424.0,19.05
2426.0,18.67
2428.0,18.22
2430.0,17.57
2432.0,17.0
2434.0,16.43
2436.0,15.88
2438.0,15.25
2440.0,14.59
2442.0,13.81
2444.0,12.91
2446.0,12.21
2448.0,11.6
2450.0,11.05
2452.0,10.48
2454.0,10.01
2456.0,9.42
2458.0,8.71
2460.0,7.84
2462.0,7.08
2464.0,6.37
2466.0,5.67
2468.0,4.84
2470.0,3.9
2472.0,3.07
2474.0,2.48
2476.0,2.17
2478.0,1.72
2480.0,1.17
2482.0,0.81
2484.0,0.67
2486.0,0.63
2488.0,0.65
2490.0,0.82
2492.0,1.19
2494.0,1.34
2496.0,1.55
2498.0,1.62
2500.0,1.93
